z (nm)	 No trap	 Trap (0.8 nm)	 Trap (1 nm)	 Trap (both)
-3.0	1.0078548866230028	2.266480595915859	1.8578265330970813	3.646581799133011	
-2.94	1.0097905980155113	2.359514250974742	1.948772590631897	3.549331178695792	
-2.88	1.0116491326811885	2.4481427711791146	2.0370949466560715	3.4477164689335065	
-2.82	1.0134150450084871	2.5319721019414905	2.1223642286359135	3.3423577767828223	
-2.76	1.0150736591367195	2.6106503690127574	2.2041822586696416	3.2338689176218445	
-2.7	1.0166111909218483	2.683869202786295	2.2821840893015075	3.122853003083483	
-2.64	1.0180148624915344	2.7513646528111892	2.356039698222085	3.009898351523518	
-2.58	1.0192730084374284	2.8129176956616124	2.4254553356935293	2.8955747445598385	
-2.52	1.0203751727621753	2.8683543433486367	2.4901745221688634	2.780430048816312	
-2.46	1.021312195775436	2.9175453633337605	2.549978697152002	2.664987217557292	
-2.4	1.0220762902167722	2.9604056248704116	2.6046875238325895	2.5497416823648646	
-2.34	1.022661105972762	2.996893089823253	2.6541588573898576	2.435159140464947	
-2.2800000000000002	1.0230617828505018	3.0270074692607274	2.6982883880575117	2.3216737388204964	
-2.2199999999999998	1.0232749909689158	3.050788569952795	2.737008973043841	2.2096866517463454	
-2.16	1.0232989584322003	3.068314357405886	2.7702896741772545	2.0995650446214267	
-2.1	1.02313348605541	3.0796987642076417	2.7981345206693446	1.9916414123358916	
-2.04	1.0227799490198095	3.0850892742163447	2.8205810186309352	1.8862132774624234	
-1.98	1.0222412854442418	3.0846643145003037	2.8376984309204345	1.783543229826166	
-1.92	1.0215219719674773	3.0786304879020485	2.8495858525311575	1.6838592862024946	
-1.86	1.0206279865444883	3.0672196796672084	2.8563701080221175	1.5873555463259823	
-1.8	1.0195667587658155	3.050686071740126	2.8582034984567257	1.4941931192693454	
-1.74	1.0183471081129214	3.0293030980942	2.855261425931475	1.4045012925628264	
-1.6800000000000002	1.0169791706626614	3.003360373846604	2.847739924052608	1.3183789151797463	
-1.62	1.0154743148500007	2.97316062992126	2.8358531226576673	1.2358959647129164	
-1.56	1.0138450469890519	2.939016683692481	2.8198306746901634	1.1570952687022709	
-1.5	1.0121049073376065	2.9012484743906333	2.799915172432976	1.081994350132674	
-1.44	1.010268357568934	2.860180190110732	2.7763595793072637	1.0105873675822301	
-1.3800000000000001	1.008350660586028	2.8161375110692037	2.749424702170507	0.9428471213396065	
-1.32	1.0063677536771263	2.769444991340142	2.71937672752484	0.8787270979927545	
-1.26	1.0043361160666489	2.7204235987101906	2.686484843303739	0.8181635274852501	
-1.2000000000000002	1.0022726319623094	2.6693884295625736	2.6510189659726193	0.7610774284009626	
-1.1400000000000001	1.000194450236548	2.616646612878967	2.6132475905902504	0.7073766192305703	
-1.08	0.9981188419084407	2.562495414576974	2.5734357792685905	0.6569576755503352	
-1.02	0.996063056610481	2.5072205505245058	2.531843301174514	0.609707815359066	
-0.96	0.9940441792331075	2.4510947137335566	2.4887229348747932	0.5655066972276742	
-0.8999999999999999	0.9920789879383349	2.394376318475618	2.4443189414714155	0.5242281183721647	
-0.8399999999999999	0.9901838147225035	2.3373084614177273	2.3988657146428602	0.4857416022216392	
-0.7800000000000002	0.9883744096869413	2.2801180973866395	2.3525866114308314	0.4499138674767026	
-0.7200000000000002	0.9866658101445529	2.2230154250587066	2.3056929654205387	0.4166101730020539	
-0.6600000000000001	0.985072215650132	2.1661934757691528	2.258383281881468	0.38569553513531696	
-0.6000000000000001	0.9836068699929827	2.1098278967542217	2.2108426124847393	0.35703581609159674	
-0.54	0.982281951132559	2.0540769184935193	2.1632421054073885	0.3304986840737576	
-0.48	0.981108469991836	1.9990814944105646	2.1157387249812905	0.30595444744079775	
-0.41999999999999993	0.9800961789494974	1.9449656000120181	2.068475133547108	0.2832767668248963	
-0.3600000000000003	0.979253490791435	1.891836677588705	2.0215797268278544	0.26234325041096507	
-0.30000000000000027	0.9785874087951151	1.8397862118474952	1.9751668129348332	0.2430359386953567	
-0.2400000000000002	0.9781034685278667	1.7888904212731949	1.9293369240512708	0.22524168592251956	
-0.18000000000000016	0.9778056918427747	1.7392110496158566	1.8841772488980821	0.20885244606458037	
-0.1200000000000001	0.977696553454512	1.690796241648307	1.839762173269007	0.19376547166835262	
-0.06000000000000005	0.9777769603728754	1.6436814872369911	1.7961539152342365	0.1798834341604763	
0.0	0.9780462443649557	1.5978906178228456	1.7534032410682445	0.16711447429082488	
0.06000000000000005	0.9785021675085804	1.5534368396346165	1.7115502475843847	0.15537219132588373	
0.1200000000000001	0.9791409407908761	1.5103237883784661	1.6706251963879601	0.14457557939771318	
0.17999999999999972	0.9799572555973921	1.4685465907888002	1.6306493856236957	0.13464891909095755	
0.23999999999999977	0.9809443278300771	1.4280929193019711	1.5916360451187779	0.12552163193035706	
0.2999999999999998	0.9820939542874754	1.3889440272273084	1.5535912414201014	0.11712810493365651	
0.3599999999999999	0.9833965808385752	1.35107575311821	1.5165147800857528	0.10940749183792466	
0.41999999999999993	0.9848413818237475	1.3144594845478472	1.48040109368592	0.10230349700827616	
0.48	0.9864163500228992	1.2790630731094133	1.4452401052482726	0.0957641474130436	
0.54	0.9881083964431522	1.2448516941196905	1.4110180582849048	0.08974155741393537	
0.5999999999999996	0.9899034590967424	1.2117886461352925	1.3777183059943707	0.08419169048795651	
0.6599999999999997	0.9917866198651304	1.1798360869287237	1.3453220536776878	0.07907412138294012	
0.7199999999999998	0.9937422284781087	1.1489557039649636	1.3138090497848993	0.07435180162186095	
0.7799999999999998	0.9957540325775504	1.1191093186339023	1.2831582222755131	0.06999083072212811	
0.8399999999999999	0.9978053127849027	1.090259424511907	1.2533482581029523	0.0659602349919563	
0.8999999999999999	0.9998790216499125	1.0623696607448583	1.2243581246058113	0.062231755311536116	
0.96	1.0019579253258377	1.0354052222751873	1.1961675324048338	0.05877964490461056	
1.0199999999999996	1.0040247467937375	1.00933320909562	1.1687573400717404	0.05558047775670819	
1.08	1.0060623094455436	0.9841229170266115	1.1421099013683425	0.052612968038443876	
1.1399999999999997	1.0080536798326611	0.9597460727091562	1.116209356269846	0.0498578006433743	
1.2000000000000002	1.009982308393753	0.9361770156061012	1.0910418673046636	0.047297472746322476	
1.2599999999999998	1.011832166992177	0.9133928298378261	1.0665958029840328	0.044916146125678506	
1.3200000000000003	1.013587882120053	0.8913734286638932	1.0428618702766905	0.04269950986745813	
1.38	1.0152348626619427	0.8701015943795952	1.0198331982231201	0.04063465297529862	
1.4399999999999995	1.016759421156349	0.8495629763401309	0.9975053748943513	0.038709946344677726	
1.5	1.0181488875472755	0.8297460497671624	0.9758764399932618	0.03691493351727398	
1.5599999999999996	1.0193917144804927	0.8106420379412665	0.9549468354805738	0.03524022960871559	
1.62	1.0204775732694356	0.7922448003451007	0.9347193166896441	0.03367742779653214	
1.6799999999999997	1.0213974397331944	0.7745506892994485	0.9151988264780949	0.03221901276186216	
1.7400000000000002	1.02214366919323	0.7575583776291659	0.8963923350526865	0.030858280495703376	
1.7999999999999998	1.0227100600055377	0.7412686599083363	0.878308648197645	0.029589263905907815	
1.8599999999999994	1.0230919051002778	0.7256842298623077	0.8609581867354819	0.028406663692741165	
1.92	1.0232860311005354	0.7108094365464298	0.8443527401519082	0.027305783996968928	
1.9799999999999995	1.0232908246951102	0.6966500219742432	0.8285051974206186	0.026282472363688872	
2.04	1.0231062460461664	0.6832128429281129	0.8134292581667979	0.025333063606320243	
2.0999999999999996	1.022733829120308	0.6705055797491313	0.799139127407216	0.024454327197301354	
2.16	1.0221766689403389	0.6585364349666804	0.7856491971964077	0.023643417854328223	
2.2199999999999998	1.0214393958636419	0.647313824687496	0.7729737185894346	0.022897829032715724	
2.2799999999999994	1.0205281371009467	0.6368460657157285	0.761126467398819	0.022215349075129596	
2.34	1.0194504657952947	0.6271410614158706	0.7501204072733434	0.02159401980907494	
2.3999999999999995	1.0182153380843728	0.6182059893563304	0.7399673536567016	0.021032097419769365	
2.46	1.0168330186692855	0.6100469937800673	0.730677642191935	0.02052801546108541	
2.5199999999999996	1.0153149955083218	0.6026688859376447	0.7222598051210662	0.020080349899887814	
2.58	1.0136738843446793	0.596074855285327	0.7147202591866479	0.019687786119138746	
2.6399999999999997	1.0119233238615684	0.5902661944949692	0.7080630084718166	0.019349087832470094	
2.7	1.010077862336032	0.5852420411423602	0.7022893655171696	0.01906306788743984	
2.76	1.0081528367334651	0.5809991388359259	0.6973976939260875	0.018828560956353484	
2.8199999999999994	1.0061642452476185	0.5775316204182334	0.6933831755153477	0.01864439813233318	
2.88	1.0041286143453834	0.5748308157190741	0.6902376048858188	0.018509383464286894	
2.9399999999999995	1.0020628614212794	0.5728850861620769	0.6879492140801143	0.018422272477634852	
3.0	0.9999841542030935	0.5716796883282881	0.6865025297621974	0.018381752738197126	
